 C Density=2.2
 Energy(eV), Delta, Beta
  30.  0.311978102  0.225134641
  30.2115593  0.309044242  0.220044345
  30.4246082  0.306014806  0.215067819
  30.6391602  0.302979738  0.210203454
  30.8552246  0.299922973  0.205448732
  31.0728111  0.296848238  0.200801268
  31.291935  0.293783486  0.196259022
  31.5126057  0.290688097  0.191819906
  31.734827  0.287621945  0.187481388
  31.9586201  0.284523219  0.183240384
  32.1839867  0.281451315  0.179095447
  32.4109497  0.278370857  0.175044343
  32.6395073  0.275301933  0.171085075
  32.8696785  0.272243798  0.167215317
  33.1014748  0.269183815  0.16343303
  33.3348999  0.266151547  0.15973638
  33.5699768  0.263106257  0.156123444
  33.8067093  0.260094136  0.152592257
  34.0451126  0.257073164  0.149140567
  34.2851944  0.254076272  0.145767033
  34.5269699  0.251081258  0.142469957
  34.7704506  0.248092324  0.139247611
  35.0156517  0.245125502  0.136117414
  35.2625809  0.242155284  0.133116245
  35.5112457  0.239220306  0.130181253
  35.761673  0.236344025  0.127323657
  36.0138588  0.233502477  0.124529347
  36.2678261  0.230691805  0.121796332
  36.5235825  0.227912992  0.11912331
  36.7811432  0.22516425  0.116508983
  37.0405197  0.222443983  0.11395213
  37.3017273  0.219755277  0.111451358
  37.5647774  0.217094377  0.109005228
  37.8296776  0.214464962  0.106612846
  38.0964508  0.211866572  0.104273252
  38.3651047  0.209298894  0.101985082
  38.6356544  0.206786901  0.0997469202
  38.9081116  0.204325154  0.0975577384
  39.1824837  0.201901063  0.0953893811
  39.4587975  0.199530229  0.0931937322
  39.7370605  0.197186291  0.0910486057
  40.0172768  0.19476141  0.0888668597
  40.2994804  0.192363366  0.086735405
  40.5836678  0.189946398  0.0846550986
  40.8698578  0.187538579  0.0826246962
  41.1580734  0.185141772  0.0806429014
  41.4483147  0.182748333  0.0787086785
  41.7406044  0.180380538  0.0768208653
  42.0349579  0.178009018  0.0749784559
  42.3313828  0.175668597  0.0731802508
  42.6298981  0.173327848  0.0714250281
  42.9305229  0.17101261  0.0697118714
  43.2332649  0.16870743  0.06803976
  43.5381432  0.166417256  0.0664077178
  43.8451691  0.164141968  0.0648149028
  44.1543655  0.161856279  0.063260451
  44.4657364  0.159602478  0.061743319
  44.7793045  0.157313764  0.0602792092
  45.0950851  0.15505752  0.0588498898
  45.4130936  0.15282923  0.0575688072
  45.7333412  0.150631219  0.0563609637
  46.055851  0.148492217  0.055178415
  46.3806305  0.146419719  0.0540206358
  46.7077026  0.144378945  0.0528871641
  47.0370789  0.142382979  0.0517775901
  47.368782  0.140414566  0.050691288
  47.7028275  0.138480932  0.0496277735
  48.0392227  0.136575133  0.0485865995
  48.3779869  0.134697706  0.047567267
  48.7191467  0.132847592  0.0465692878
  49.0627098  0.131023034  0.0455922373
  49.4086952  0.129223824  0.0446356349
  49.757122  0.127449259  0.0436990969
  50.1080055  0.125697106  0.0427822508
  50.4613647  0.123969018  0.0418846384
  50.817215  0.122261316  0.041005794
  51.1755714  0.12057589  0.040145386
  51.5364571  0.118909791  0.0393030383
  51.8998909  0.117261887  0.0384783633
  52.2658844  0.115633696  0.0376710258
  52.6344566  0.114012234  0.036880739
  53.0056305  0.112413488  0.0361070298
  53.3794212  0.110808082  0.0353932753
  53.7558479  0.109221645  0.0346995182
  54.1349335  0.107683912  0.0340422578
  54.5166893  0.106185205  0.0334126949
  54.9011345  0.104715534  0.0327947661
  55.2882919  0.10328386  0.0321882442
  55.6781807  0.101872191  0.031592939
  56.070816  0.100494012  0.0310085956
  56.4662247  0.0991344452  0.0304350555
  56.8644218  0.0978022367  0.0298721269
  57.2654228  0.0964909345  0.0293196179
  57.6692581  0.0952024534  0.0287773646
  58.0759354  0.0939372107  0.0282451864
  58.4854813  0.092691049  0.0277228374
  58.8979149  0.0914717764  0.0272100735
  59.3132629  0.0902684554  0.0267067887
  59.7315331  0.0890977457  0.026212858
  60.1527557  0.0879440382  0.0257280655
  60.5769463  0.0868259966  0.0252376143
  61.0041351  0.0857349783  0.0247474536
  61.4343224  0.0846516341  0.0242481232
  61.8675537  0.0835700482  0.0237216298
  62.3038406  0.0825008228  0.0232065711
  62.743206  0.0814182982  0.0227027349
  63.1856613  0.0803499445  0.0222098585
  63.6312447  0.0792866126  0.0217276216
  64.0799637  0.0782345906  0.0212558415
  64.5318527  0.0771929249  0.0207942966
  64.9869308  0.0761612728  0.0203427561
  65.4452057  0.0751422718  0.0199010372
  65.906723  0.0741322935  0.0194689464
  66.3714905  0.0731358826  0.0190462377
  66.8395386  0.0721487552  0.0186327081
  67.3108826  0.0711745694  0.0182281565
  67.785553  0.0702111349  0.0178323854
  68.2635727  0.0692593455  0.0174452066
  68.744957  0.0683193654  0.0170664452
  69.229744  0.0673900843  0.0166959204
  69.7179489  0.0664732456  0.0163334347
  70.2095947  0.0655663535  0.0159787573
  70.7047043  0.0646718293  0.0156317782
  71.2033081  0.0637875572  0.015292367
  71.7054291  0.0629148334  0.0149603328
  72.2110901  0.0620529875  0.0146355219
  72.720314  0.0612018965  0.0143177724
  73.2331314  0.0603620559  0.0140069164
  73.7495651  0.0595321991  0.0137027903
  74.2696457  0.0587137341  0.0134052578
  74.7933884  0.0579048619  0.0131142093
  75.3208313  0.0571070127  0.0128294788
  75.8519821  0.0563191064  0.0125509314
  76.3868866  0.0555415079  0.0122784302
  76.92556  0.0547740906  0.0120118381
  77.4680328  0.0540163182  0.0117510203
  78.014328  0.0532689244  0.0114958696
  78.564476  0.0525305755  0.0112462752
  79.118515  0.0518024415  0.0110020973
  79.6764526  0.0510834157  0.010763214
  80.2383194  0.0503741205  0.0105295153
  80.8041534  0.0496740378  0.0103008943
  81.3739777  0.0489831008  0.010077239
  81.9478226  0.0483014956  0.00985843781
  82.5257111  0.0476284735  0.00964438729
  83.1076736  0.0469648354  0.00943498407
  83.6937408  0.0463094898  0.00923013221
  84.2839508  0.0456632301  0.0090297265
  84.8783112  0.0450252965  0.00883367006
  85.4768677  0.0443959199  0.00864186231
  86.0796432  0.0437749624  0.00845422689
  86.6866608  0.0431620963  0.00827067532
  87.2979736  0.0425577089  0.00809109863
  87.9135895  0.0419610105  0.0079154186
  88.5335541  0.0413726792  0.00774355233
  89.1578827  0.0407918841  0.00757542253
  89.7866211  0.0402190797  0.00741094211
  90.4197845  0.03965386  0.00725003378
  91.0574188  0.0390961915  0.00709261652
  91.6995468  0.0385461673  0.00693861814
  92.3462067  0.0380032957  0.00678796554
  92.9974213  0.037468072  0.00664058328
  93.6532364  0.0369396061  0.00649640057
  94.3136673  0.0364185721  0.00635535084
  94.9787598  0.0359044112  0.00621736329
  95.6485367  0.0353972912  0.00608237227
  96.3230438  0.0348970219  0.0059503098
  97.0023117  0.0344033726  0.00582111347
  97.6863632  0.0339166299  0.00569472276
  98.3752365  0.033436168  0.00557107711
  99.0689697  0.0329625085  0.00545011554
  99.7675934  0.0324949995  0.00533177843
  100.471153  0.0320340022  0.00521600945
  101.179672  0.0315791853  0.00510275131
  101.893181  0.031130543  0.00499195559
  102.611717  0.0306880977  0.00488356967
  103.335327  0.0302514546  0.00477754558
  104.064041  0.0298210252  0.00467382325
  104.79789  0.0293961167  0.00457233516
  105.536919  0.028977247  0.00447304966
  106.281158  0.0285639148  0.00437593227
  107.030647  0.0281562936  0.00428092852
  107.785416  0.027754236  0.00418798253
  108.545509  0.0273575652  0.00409704866
  109.310959  0.026966488  0.00400808919
  110.08181  0.0265804902  0.00392105849
  110.858101  0.0262000188  0.00383591768
  111.639862  0.0258244909  0.00375262974
  112.427139  0.0254542511  0.00367114996
  113.219971  0.0250890087  0.00359143945
  114.018387  0.0247287732  0.00351346028
  114.822433  0.0243735407  0.00343717611
  115.632156  0.0240229964  0.00336255529
  116.447586  0.0236774925  0.0032895545
  117.268761  0.0233364385  0.00321812578
  118.095734  0.0230002888  0.00314824563
  118.928535  0.0226685759  0.00307988958
  119.767204  0.0223414879  0.00301301992
  120.611786  0.0220189057  0.00294760289
  121.462341  0.0217007026  0.00288360193
  122.318886  0.0213870127  0.00282099191
  123.181458  0.0210774094  0.00275973999
  124.050133  0.0207722746  0.0026998173
  124.924919  0.0204711892  0.00264120405
  125.805885  0.0201744027  0.00258386461
  126.693047  0.019881675  0.00252776034
  127.586487  0.019593006  0.00247286726
  128.486206  0.0193084534  0.00241917046
  129.392273  0.0190278701  0.00236664829
  130.304749  0.0187513512  0.00231526559
  131.223648  0.0184791386  0.00226500072
  132.149033  0.0182108711  0.00221582712
  133.080933  0.0179458689  0.00216599554
  134.019409  0.0176844914  0.00211667106
  134.964508  0.0174262207  0.0020684707
  135.91626  0.0171708856  0.00202136906
  136.874725  0.0169190932  0.00197533937
  137.839966  0.0166700259  0.0019303537
  138.811996  0.0164246224  0.00188639539
  139.790878  0.0161819942  0.00184343685
  140.776672  0.0159428306  0.00180145679
  141.769424  0.0157066714  0.00176043517
  142.76918  0.0154736638  0.00172035163
  143.77597  0.0152438348  0.00168117881
  144.789856  0.0150168417  0.0016428933
  145.810913  0.0147931818  0.0016054794
  146.839157  0.014572069  0.00156892033
  147.874664  0.0143542457  0.00153319386
  148.917465  0.0141390674  0.00149828161
  149.967621  0.0139269028  0.00146416435
  151.025177  0.0137175228  0.00143082091
  152.090195  0.0135108428  0.001398233
  153.16272  0.0133071151  0.0013663891
  154.242813  0.0131058088  0.00133527827
  155.330521  0.0129075302  0.00130487571
  156.425888  0.0127114952  0.00127516163
  157.528992  0.0125183361  0.00124612369
  158.639877  0.0123275807  0.0012177449
  159.758591  0.0121394023  0.00119001151
  160.885193  0.0119538009  0.00116291048
  162.019745  0.0117704775  0.00113642809
  163.162292  0.0115898997  0.0011105492
  164.312897  0.0114112692  0.00108526403
  165.471619  0.0112353656  0.00106055441
  166.638519  0.0110614859  0.00103640195
  167.813644  0.0108900759  0.00101279875
  168.997055  0.0107208658  0.000989733846
  170.188797  0.0105538126  0.00096719584
  171.388962  0.010389152  0.000945171167
  172.59758  0.0102263344  0.000923649408
  173.814728  0.0100660343  0.000902617641
  175.040451  0.00990740117  0.000882062013
  176.274826  0.00975116249  0.0008619742
  177.517883  0.00959679857  0.000842345296
  178.76973  0.0094445264  0.000823163951
  180.030411  0.00929434411  0.000804419629
  181.299957  0.00914599095  0.000786102726
  182.578476  0.00899996422  0.00076820259
  183.866013  0.00885620713  0.000750707404
  185.162613  0.00871471222  0.000733610766
  186.468369  0.00857417565  0.000715067727
  187.783325  0.00843552407  0.000696505478
  189.107559  0.00829789415  0.000678401266
  190.441132  0.00816130824  0.000660744612
  191.784103  0.00802651793  0.000643548439
  193.136566  0.00789248198  0.000626801921
  194.498535  0.00776062999  0.000610491901
  195.870117  0.00762926368  0.000594604819
  197.251389  0.00749993883  0.000579130894
  198.64238  0.0073715779  0.000564059359
  200.043198  0.00724472711  0.000549379736
  201.453888  0.00711930124  0.000535082421
  202.874527  0.00699481787  0.000521157519
  204.305176  0.00687225396  0.000507595134
  205.745911  0.00674998341  0.000494386943
  207.196823  0.00662978599  0.000481522264
  208.657959  0.00650996249  0.000468990183
  210.129395  0.0063917879  0.000456783746
  211.611206  0.00627448363  0.000444896286
  213.103485  0.0061581512  0.000433319365
  214.606262  0.00604326138  0.000422043406
  216.119659  0.00592851173  0.00041105962
  217.643707  0.00581578864  0.000400361721
  219.178513  0.00570240663  0.000390072964
  220.724152  0.00559092686  0.000380054931
  222.28067  0.00547965476  0.000370478752
  223.848175  0.00536952633  0.000361232524
  225.426743  0.00526021188  0.000352216593
  227.016434  0.00515103899  0.000343425694
  228.61734  0.00504352292  0.000334854092
  230.229523  0.00493486924  0.000326496112
  231.853073  0.00482826587  0.000318346691
  233.488083  0.00472036703  0.000310401054
  235.134628  0.00461382139  0.00030265376
  236.792786  0.00450681522  0.000295099569
  238.462616  0.00439975318  0.000287733768
  240.144257  0.00429340592  0.00028055202
  241.837723  0.00418512011  0.000273550424
  243.543152  0.00407901965  0.000266723568
  245.26059  0.00396937504  0.000259783701
  246.990143  0.00386182056  0.000253015722
  248.731903  0.0037504721  0.000245713629
  250.485931  0.00363876764  0.000238307752
  252.252335  0.00352500053  0.000231125567
  254.031204  0.00340721617  0.000224160525
  255.822601  0.00329036638  0.000217405206
  257.626648  0.00316406274  0.00021085258
  259.44342  0.00304064341  0.000204497439
  261.27298  0.00290441816  0.000198334179
  263.115479  0.00276839081  0.000192356412
  264.970917  0.00262041111  0.000186559526
  266.839478  0.00246393541  0.000180937292
  268.721222  0.0022991905  0.000175484165
  270.616211  0.00210634526  0.000170195301
  272.524567  0.00191843475  0.000165065823
  274.446411  0.00164968625  0.000160090713
  276.381775  0.00138697412  0.000155265618
  278.33078  0.000945536303  0.000150586362
  280.293549  0.000439199561  0.000146048289
  282.270172 -0.00110910251  0.000141646698
  284.260712 -0.00380408624  0.00203902484
  286.265289 -0.000166712998  0.00385464891
  288.284027  0.00052608375  0.00376841798
  290.316986  0.00119957549  0.00368411629
  292.364258  0.00153581623  0.00360169937
  294.425995  0.00180876057  0.0035211253
  296.502258  0.00201773713  0.00344235497
  298.59317  0.0021789961  0.00336534739
  300.698822  0.00232211524  0.00329006021
  302.819336  0.00242843921  0.00321645127
  304.954773  0.00253122114  0.0031444896
  307.105286  0.00260433368  0.00307415286
  309.270966  0.0026749121  0.00300538889
  311.451935  0.00273061753  0.00293815625
  313.648285  0.00277952128  0.0028724235
  315.860107  0.0028212429  0.00280816201
  318.087524  0.00285457098  0.00274533732
  320.330658  0.00288504642  0.00268391799
  322.589569  0.00290670875  0.00262387516
  324.864471  0.00292720343  0.00256517436
  327.155365  0.00294071552  0.00250779395
  329.462433  0.00295242993  0.00245169806
  331.785797  0.00296015805  0.00239685224
  334.125549  0.00296496204  0.00234322925
  336.48175  0.00296777464  0.00229080627
  338.854584  0.00296704727  0.00223955465
  341.244171  0.00296568754  0.0021894495
  343.650604  0.00296047889  0.00214047171
  346.074005  0.00295483856  0.00209258962
  348.514465  0.0029467342  0.00204577809
  350.972198  0.00293756439  0.00200001244
  353.447205  0.00292704301  0.00195527123
  355.939697  0.0029150194  0.00191152981
  358.449738  0.00290244119  0.00186876743
  360.977509  0.00288812374  0.00182696013
  363.523102  0.00287363888  0.00178608939
  366.086639  0.00285773166  0.00174613146
  368.668243  0.00284155272  0.00170706748
  371.268066  0.00282484782  0.00166887778
  373.8862  0.00280778599  0.00163154304
  376.522797  0.00279037096  0.00159447163
  379.178009  0.00277231471  0.00155706564
  381.851959  0.00275414041  0.00152049644
  384.544739  0.00273400079  0.00148379069
  387.2565  0.00271388702  0.00144797121
  389.987427  0.00269230222  0.00141301635
  392.737579  0.00267031323  0.00137890549
  395.507141  0.00264782272  0.00134561816
  398.296234  0.00262478925  0.00131313468
  401.10498  0.00260168081  0.00128143479
  403.933533  0.00257785013  0.00125049951
  406.782043  0.00255417801  0.00122031057
  409.650635  0.00252984976  0.00119085074
  412.539459  0.00250561954  0.00116210198
  415.448669  0.00248108106  0.0011340481
  418.378357  0.00245644571  0.00110667234
  421.328705  0.00243178126  0.00107995677
  424.299927  0.00240687747  0.00105388393
  427.292023  0.00238216086  0.00102844217
  430.305267  0.00235709734  0.00100361311
  433.339752  0.00233226898  0.000979383942
  436.395599  0.00230726064  0.000955740979
  439.473022  0.00228237594  0.000932668918
  442.572174  0.0022575045  0.000910153729
  445.693146  0.00223264494  0.000888182025
  448.836121  0.00220795232  0.000866740709
  452.001312  0.00218318077  0.00084581587
  455.188782  0.00215867162  0.000825396273
  458.398743  0.00213407772  0.000805471616
  461.631317  0.00210972247  0.000786028279
  464.886719  0.00208542217  0.000767052756
  468.16507  0.00206127367  0.000748534745
  471.466522  0.00203729444  0.000730464526
  474.79126  0.00201340648  0.000712831621
  478.139435  0.0019897751  0.000695623225
  481.511261  0.00196624082  0.000678817916
  484.90683  0.00194297603  0.000662418664
  488.326385  0.00191975292  0.000646244502
  491.769958  0.00189674145  0.000630421157
  495.237915  0.0018738301  0.000614984601
  498.730316  0.0018510283  0.000599925115
  502.247314  0.00182844163  0.000585234782
  505.789093  0.00180593273  0.000570904056
  509.355865  0.001783696  0.000556924148
  512.947815  0.0017615268  0.000543287315
  516.565063  0.00173961651  0.000529984594
  520.207825  0.00171785022  0.000517007022
  523.876282  0.0016962887  0.000504347088
  527.570679  0.00167493068  0.00049199682
  531.291016  0.00165373494  0.000479948998
  535.037659  0.0016327902  0.000468196115
  538.81073  0.00161197037  0.000456731592
  542.610352  0.00159141398  0.000445547863
  546.436768  0.00157100754  0.000434637768
  550.290222  0.00155083439  0.000423994643
  554.170837  0.00153085426  0.000413612404
  558.078796  0.00151107227  0.000403484562
  562.014282  0.00149151729  0.000393604452
  565.977661  0.0014721289  0.000383965205
  569.968811  0.00145299197  0.000374562165
  573.98822  0.00143400696  0.000365390646
  578.03595  0.00141526479  0.000356443838
  582.112183  0.00139670505  0.000347716239
  586.217163  0.00137835811  0.000339202408
  590.351135  0.00136021955  0.00033089667
  594.514282  0.00134227006  0.000322793581
  598.706726  0.0013245485  0.000314889214
  602.928772  0.001306994  0.000307178154
  607.180542  0.00128967152  0.000299655978
  611.462341  0.00127252203  0.000292318669
  615.774292  0.00125558849  0.000285161193
  620.116699  0.00123884669  0.000278178457
  624.489746  0.00122230011  0.000271366298
  628.893555  0.00120595994  0.000264721166
  633.328491  0.00118979625  0.000258239219
  637.794678  0.00117384875  0.000251915975
  642.292358  0.00115806458  0.000245747011
  646.821716  0.00114249089  0.000239729066
  651.383057  0.00112709054  0.0002338591
  655.976624  0.00111188146  0.000228133067
  660.602478  0.00109685154  0.000222546892
  665.260986  0.00108198728  0.000217096924
  669.952332  0.00106731628  0.000211791848
  674.676819  0.00105279032  0.000206694574
  679.43457  0.00103846181  0.000201720046
  684.225891  0.00102436484  0.000196936628
  689.051025  0.00101046578  0.000192279622
  693.910095  0.000996865099  0.000187748374
  698.803528  0.000983532518  0.000183335433
  703.731445  0.000970398425  0.00017895631
  708.694092  0.000957492855  0.000174501925
  713.691711  0.000944758474  0.000170158426
  718.724609  0.000932004361  0.000165761347
  723.79303  0.000919420505  0.000161476579
  728.897156  0.000906925823  0.000157303046
  734.037292  0.000894567871  0.000153237532
  739.213684  0.000882349443  0.000149277112
  744.426514  0.000870259653  0.000145419152
  749.676147  0.000858328189  0.000141660828
  754.962769  0.00084651768  0.000137999567
  760.286743  0.000834869512  0.000134432907
  765.648193  0.000823348004  0.000130957822
  771.047485  0.000811980048  0.000127572494
  776.484863  0.000800750277  0.000124274011
  781.960571  0.000789662066  0.000121060337
  787.474854  0.000778719201  0.000117929536
  793.028137  0.000767907943  0.000114879047
  798.620483  0.000757246627  0.00011190748
  804.252258  0.000746709469  0.000109012348
  809.923828  0.000736318703  0.00010619199
  815.635376  0.00072605809  0.000103444982
  821.387085  0.000715935195  0.000100769255
  827.179443  0.000705946411  9.81627381E-05
  833.012695  0.000696088362  9.56239674E-05
  838.887024  0.000686366169  9.31500035E-05
