 H Density=0.8988E-04
 Energy(eV), Delta, Beta
  30.  4.42321216E-05  1.2486651E-05
  30.2115593  4.36316914E-05  1.21430412E-05
  30.4246082  4.3042739E-05  1.18159141E-05
  30.6391602  4.24625869E-05  1.14993836E-05
  30.8552246  4.18911113E-05  1.11904401E-05
  31.0728111  4.13281559E-05  1.08889681E-05
  31.291935  4.07722109E-05  1.0595224E-05
  31.5126057  4.02219594E-05  1.03081093E-05
  31.734827  3.96791402E-05  1.00287853E-05
  31.9586201  3.91412323E-05  9.7570246E-06
  32.1839867  3.86104839E-05  9.49263904E-06
  32.4109497  3.80853817E-05  9.2354303E-06
  32.6395073  3.75666496E-05  8.98521012E-06
  32.8696785  3.70542948E-05  8.74175748E-06
  33.1014748  3.65478118E-05  8.50488686E-06
  33.3348999  3.60480808E-05  8.27443364E-06
  33.5699768  3.5553483E-05  8.05019044E-06
  33.8067093  3.50656701E-05  7.8320254E-06
  34.0451126  3.45830631E-05  7.61977162E-06
  34.2851944  3.41067716E-05  7.41327858E-06
  34.5269699  3.36363919E-05  7.21238575E-06
  34.7704506  3.31719239E-05  7.01694307E-06
  35.0156517  3.27134767E-05  6.82670998E-06
  35.2625809  3.22601809E-05  6.64138679E-06
  35.5112457  3.18131788E-05  6.46109811E-06
  35.761673  3.13710152E-05  6.28566841E-06
  36.0138588  3.09349562E-05  6.115004E-06
  36.2678261  3.05041158E-05  5.94897483E-06
  36.5235825  3.0078887E-05  5.78745448E-06
  36.7811432  2.96591606E-05  5.63030426E-06
  37.0405197  2.92446457E-05  5.47739864E-06
  37.3017273  2.88358206E-05  5.32863942E-06
  37.5647774  2.84318903E-05  5.18387787E-06
  37.8296776  2.80336244E-05  5.04305399E-06
  38.0964508  2.76401952E-05  4.90604089E-06
  38.3651047  2.72521338E-05  4.7727508E-06
  38.6356544  2.68690419E-05  4.64307459E-06
  38.9081116  2.64909504E-05  4.51691767E-06
  39.1824837  2.61180467E-05  4.394195E-06
  39.4587975  2.57499978E-05  4.27481973E-06
  39.7370605  2.53871331E-05  4.15868499E-06
  40.0172768  2.50288012E-05  4.04574394E-06
  40.2994804  2.46755008E-05  3.93586606E-06
  40.5836678  2.43271916E-05  3.82892131E-06
  40.8698578  2.39837991E-05  3.72486102E-06
  41.1580734  2.36449723E-05  3.62326796E-06
  41.4483147  2.33105475E-05  3.52395273E-06
  41.7406044  2.2980732E-05  3.42735893E-06
  42.0349579  2.265478E-05  3.33341131E-06
  42.3313828  2.23334537E-05  3.24203961E-06
  42.6298981  2.20163056E-05  3.1531697E-06
  42.9305229  2.17035886E-05  3.0667361E-06
  43.2332649  2.13950207E-05  2.98261034E-06
  43.5381432  2.10906164E-05  2.90074604E-06
  43.8451691  2.07904468E-05  2.82112364E-06
  44.1543655  2.04943008E-05  2.74367085E-06
  44.4657364  2.02023784E-05  2.66834604E-06
  44.7793045  1.99142105E-05  2.59506965E-06
  45.0950851  1.96301462E-05  2.52380505E-06
  45.4130936  1.93499654E-05  2.45449996E-06
  45.7333412  1.90737155E-05  2.38709958E-06
  46.055851  1.88012746E-05  2.3215448E-06
  46.3806305  1.85325516E-05  2.2577849E-06
  46.7077026  1.8267634E-05  2.1957801E-06
  47.0370789  1.80063162E-05  2.13550311E-06
  47.368782  1.77487327E-05  2.07688117E-06
  47.7028275  1.74947654E-05  2.01985745E-06
  48.0392227  1.7244427E-05  1.96439942E-06
  48.3779869  1.69975883E-05  1.91042932E-06
  48.7191467  1.67542203E-05  1.85791612E-06
  49.0627098  1.65142974E-05  1.80684799E-06
  49.4086952  1.62777105E-05  1.75718606E-06
  49.757122  1.60445124E-05  1.70888779E-06
  50.1080055  1.58145904E-05  1.66179734E-06
  50.4613647  1.5587957E-05  1.61600451E-06
  50.817215  1.53644341E-05  1.57143586E-06
  51.1755714  1.51440645E-05  1.52808479E-06
  51.5364571  1.49268271E-05  1.48593062E-06
  51.8998909  1.47126648E-05  1.44493981E-06
  52.2658844  1.45015483E-05  1.4050803E-06
  52.6344566  1.42933113E-05  1.36631729E-06
  53.0056305  1.4088062E-05  1.3286234E-06
  53.3794212  1.38857586E-05  1.29197417E-06
  53.7558479  1.36863573E-05  1.25633665E-06
  54.1349335  1.34898173E-05  1.22167978E-06
  54.5166893  1.32960968E-05  1.1879772E-06
  54.9011345  1.31051393E-05  1.15520436E-06
  55.2882919  1.29168866E-05  1.1233368E-06
  55.6781807  1.27313333E-05  1.09234861E-06
  56.070816  1.25483948E-05  1.06221421E-06
  56.4662247  1.23680811E-05  1.03291109E-06
  56.8644218  1.2190394E-05  1.0044173E-06
  57.2654228  1.20152708E-05  9.76709885E-07
  57.6692581  1.18426378E-05  9.49767184E-07
  58.0759354  1.16724577E-05  9.23568621E-07
  58.4854813  1.15047387E-05  8.98092594E-07
  58.8979149  1.13395045E-05  8.73318982E-07
  59.3132629  1.11766376E-05  8.49228627E-07
  59.7315331  1.10161136E-05  8.25802204E-07
  60.1527557  1.08578906E-05  8.03021805E-07
  60.5769463  1.07020214E-05  7.80838718E-07
  61.0041351  1.05484351E-05  7.59248564E-07
  61.4343224  1.03970433E-05  7.38218773E-07
  61.8675537  1.02477898E-05  7.176954E-07
  62.3038406  1.01006763E-05  6.97740347E-07
  62.743206  9.95567189E-06  6.78299273E-07
  63.1856613  9.81275298E-06  6.59400655E-07
  63.6312447  9.67187952E-06  6.40949736E-07
  64.0799637  9.53302879E-06  6.22991763E-07
  64.5318527  9.39613255E-06  6.05536229E-07
  64.9869308  9.26115899E-06  5.88569435E-07
  65.4452057  9.12812538E-06  5.72078136E-07
  65.906723  8.99699899E-06  5.56048349E-07
  66.3714905  8.86775615E-06  5.40467909E-07
  66.8395386  8.74036868E-06  5.25323856E-07
  67.3108826  8.61481021E-06  5.10604366E-07
  67.785553  8.49107437E-06  4.9629881E-07
  68.2635727  8.3691275E-06  4.8239491E-07
  68.744957  8.24893232E-06  4.68879961E-07
  69.229744  8.13045972E-06  4.55742253E-07
  69.7179489  8.01368697E-06  4.42972748E-07
  70.2095947  7.89859132E-06  4.30561329E-07
  70.7047043  7.78514732E-06  4.18497621E-07
  71.2033081  7.67338133E-06  4.067725E-07
  71.7054291  7.56323152E-06  3.95375935E-07
  72.2110901  7.45466286E-06  3.84299284E-07
  72.720314  7.34765172E-06  3.73533567E-07
  73.2331314  7.24218808E-06  3.63069148E-07
  73.7495651  7.13828422E-06  3.52897104E-07
  74.2696457  7.03586784E-06  3.43009532E-07
  74.7933884  6.93492166E-06  3.33398731E-07
  75.3208313  6.83542203E-06  3.24057112E-07
  75.8519821  6.73738668E-06  3.1497737E-07
  76.3868866  6.6407747E-06  3.0615206E-07
  76.92556  6.54554742E-06  2.97574076E-07
  77.4680328  6.45168438E-06  2.8923651E-07
  78.014328  6.35917195E-06  2.81132628E-07
  78.564476  6.26803285E-06  2.73255068E-07
  79.118515  6.17819751E-06  2.65598146E-07
  79.6764526  6.08969049E-06  2.58155552E-07
  80.2383194  6.00246176E-06  2.50921516E-07
  80.8041534  5.91649405E-06  2.43886689E-07
  81.3739777  5.83176825E-06  2.37045896E-07
  81.9478226  5.74826572E-06  2.30394562E-07
  82.5257111  5.66599601E-06  2.23922058E-07
  83.1076736  5.58490228E-06  2.17631381E-07
  83.6937408  5.50498999E-06  2.1147234E-07
  84.2839508  5.42622138E-06  2.05485136E-07
  84.8783112  5.34858009E-06  1.99667213E-07
  85.4768677  5.27204838E-06  1.94013651E-07
  86.0796432  5.1966199E-06  1.8851965E-07
  86.6866608  5.12228462E-06  1.83180319E-07
  87.2979736  5.04901163E-06  1.7799178E-07
  87.9135895  4.97680639E-06  1.72950649E-07
  88.5335541  4.90563207E-06  1.68052267E-07
  89.1578827  4.83547637E-06  1.63293066E-07
  89.7866211  4.76632249E-06  1.58668726E-07
  90.4197845  4.69817905E-06  1.54175339E-07
  91.0574188  4.63102651E-06  1.49809154E-07
  91.6995468  4.56483849E-06  1.45566631E-07
  92.3462067  4.49961044E-06  1.41444175E-07
  92.9974213  4.43531417E-06  1.37438519E-07
  93.6532364  4.37197104E-06  1.33546322E-07
  94.3136673  4.30953423E-06  1.2976443E-07
  94.9787598  4.24798827E-06  1.26089844E-07
  95.6485367  4.18732134E-06  1.22519452E-07
  96.3230438  4.12753343E-06  1.19050071E-07
  97.0023117  4.06861909E-06  1.15678823E-07
  97.6863632  4.01054785E-06  1.12403065E-07
  98.3752365  3.95332017E-06  1.09219918E-07
  99.0689697  3.89690877E-06  1.06126912E-07
  99.7675934  3.84132863E-06  1.03116314E-07
  100.471153  3.78654568E-06  1.00190093E-07
  101.179672  3.73254375E-06  9.73452501E-08
  101.893181  3.67931239E-06  9.45800238E-08
  102.611717  3.62684796E-06  9.18959913E-08
  103.335327  3.5751541E-06  8.92951135E-08
  104.064041  3.52419602E-06  8.6767848E-08
  104.79789  3.4739785E-06  8.4310301E-08
  105.536919  3.42447606E-06  8.19223303E-08
  106.281158  3.37568918E-06  7.96023087E-08
  107.030647  3.32760101E-06  7.73481119E-08
  107.785416  3.28020974E-06  7.51576863E-08
  108.545509  3.23350878E-06  7.30291987E-08
  109.310959  3.1874747E-06  7.09609722E-08
  110.08181  3.14210683E-06  6.89511594E-08
  110.858101  3.09738471E-06  6.69982683E-08
  111.639862  3.05332082E-06  6.51007852E-08
  112.427139  3.00988745E-06  6.32570334E-08
  113.219971  2.96707162E-06  6.14656486E-08
  114.018387  2.9248647E-06  5.97251031E-08
  114.822433  2.8832651E-06  5.80338622E-08
  115.632156  2.84227417E-06  5.63905935E-08
  116.447586  2.80186623E-06  5.47938619E-08
  117.268761  2.76204423E-06  5.32418873E-08
  118.095734  2.72278726E-06  5.17338137E-08
  118.928535  2.68410486E-06  5.02685893E-08
  119.767204  2.64597884E-06  4.88448961E-08
  120.611786  2.60839897E-06  4.74615902E-08
  121.462341  2.57135821E-06  4.61173926E-08
  122.318886  2.53484677E-06  4.48110775E-08
  123.181458  2.49887239E-06  4.35405703E-08
  124.050133  2.46340755E-06  4.23060591E-08
  124.924919  2.42845567E-06  4.10950669E-08
  125.805885  2.39400038E-06  3.99170155E-08
  126.693047  2.36003461E-06  3.87725123E-08
  127.586487  2.32654952E-06  3.76606479E-08
  128.486206  2.29354305E-06  3.65807828E-08
  129.392273  2.26101156E-06  3.55321212E-08
  130.304749  2.22894096E-06  3.45135049E-08
  131.223648  2.19733488E-06  3.35239534E-08
  132.149033  2.16617673E-06  3.2562756E-08
  133.080933  2.13546696E-06  3.16290638E-08
  134.019409  2.10519465E-06  3.07221129E-08
  134.964508  2.07535527E-06  2.98412495E-08
  135.91626  2.04594403E-06  2.89857169E-08
  136.874725  2.01695116E-06  2.81547159E-08
  137.839966  1.98837552E-06  2.73474363E-08
  138.811996  1.96020505E-06  2.65633755E-08
  139.790878  1.93244091E-06  2.58016595E-08
  140.776672  1.9050708E-06  2.50617695E-08
  141.769424  1.87809781E-06  2.43431426E-08
  142.76918  1.85151305E-06  2.36451676E-08
  143.77597  1.82530471E-06  2.29672175E-08
  144.789856  1.79946744E-06  2.23087326E-08
  145.810913  1.77399545E-06  2.16691163E-08
  146.839157  1.74889169E-06  2.10478408E-08
  147.874664  1.72414286E-06  2.04443786E-08
  148.917465  1.69974987E-06  1.98581631E-08
  149.967621  1.67570363E-06  1.92887377E-08
  151.025177  1.65200083E-06  1.87356601E-08
  152.090195  1.62863694E-06  1.81984738E-08
  153.16272  1.60560478E-06  1.76766921E-08
  154.242813  1.58290391E-06  1.71698673E-08
  155.330521  1.56052408E-06  1.66775767E-08
  156.425888  1.53847236E-06  1.61993707E-08
  157.528992  1.51673339E-06  1.57348747E-08
  158.639877  1.4953016E-06  1.52837263E-08
  159.758591  1.47417256E-06  1.48455213E-08
  160.885193  1.45334423E-06  1.44197418E-08
  162.019745  1.4328142E-06  1.40058889E-08
  163.162292  1.41257442E-06  1.36038913E-08
  164.312897  1.39262636E-06  1.32129996E-08
  165.471619  1.37296001E-06  1.28333397E-08
  166.638519  1.3535755E-06  1.24616735E-08
  167.813644  1.33446599E-06  1.20999308E-08
  168.997055  1.31562911E-06  1.17485213E-08
  170.188797  1.29706109E-06  1.14071446E-08
  171.388962  1.27875501E-06  1.10756915E-08
  172.59758  1.26070734E-06  1.07538796E-08
  173.814728  1.24291421E-06  1.04414211E-08
  175.040451  1.22538199E-06  1.01379918E-08
  176.274826  1.20809784E-06  9.84337323E-09
  177.517883  1.19105448E-06  9.55739132E-09
  178.76973  1.17424941E-06  9.27975297E-09
  180.030411  1.15768489E-06  9.01017749E-09
  181.299957  1.14136071E-06  8.74843664E-09
  182.578476  1.12526629E-06  8.49428794E-09
  183.866013  1.1093988E-06  8.24743296E-09
  185.162613  1.09375515E-06  8.00775268E-09
  186.468369  1.0783358E-06  7.77505615E-09
  187.783325  1.06313485E-06  7.54912133E-09
  189.107559  1.04815035E-06  7.32972083E-09
  190.441132  1.03337914E-06  7.11666948E-09
  191.784103  1.01881722E-06  6.90983759E-09
  193.136566  1.00446357E-06  6.70910394E-09
  194.498535  9.90312628E-07  6.51421406E-09
  195.870117  9.76360752E-07  6.32496411E-09
  197.251389  9.62605327E-07  6.14121376E-09
  198.64238  9.49046637E-07  5.9628027E-09
  200.043198  9.35679907E-07  5.78957948E-09
  201.453888  9.22503204E-07  5.62135138E-09
  202.874527  9.0951454E-07  5.4579492E-09
  204.305176  8.96708741E-07  5.29930189E-09
  205.745911  8.84083192E-07  5.14531795E-09
  207.196823  8.71635336E-07  4.99580954E-09
  208.657959  8.59365571E-07  4.85066476E-09
  210.129395  8.47269462E-07  4.70973971E-09
  211.611206  8.35345475E-07  4.57286209E-09
  213.103485  8.23590824E-07  4.43992221E-09
  214.606262  8.12001815E-07  4.31085656E-09
  216.119659  8.00575663E-07  4.18557144E-09
  217.643707  7.89310434E-07  4.06392653E-09
  219.178513  7.78206868E-07  3.94588051E-09
  220.724152  7.67259621E-07  3.83126686E-09
  222.28067  7.56468637E-07  3.71996545E-09
  223.848175  7.45830448E-07  3.61188768E-09
  225.426743  7.35341757E-07  3.50694007E-09
  227.016434  7.25000689E-07  3.40503781E-09
  228.61734  7.14805196E-07  3.30609584E-09
  230.229523  7.04756076E-07  3.21002624E-09
  231.853073  6.94848154E-07  3.11674864E-09
  233.488083  6.85081829E-07  3.02618575E-09
  235.134628  6.75453293E-07  2.93825497E-09
  236.792786  6.65960101E-07  2.85287527E-09
  238.462616  6.56600434E-07  2.76997469E-09
  240.144257  6.47372758E-07  2.68948463E-09
  241.837723  6.38277129E-07  2.61134425E-09
  243.543152  6.29309113E-07  2.53547383E-09
  245.26059  6.20467119E-07  2.46179743E-09
  246.990143  6.11749442E-07  2.39026288E-09
  248.731903  6.03154149E-07  2.32080133E-09
  250.485931  5.94679705E-07  2.25335595E-09
  252.252335  5.86326337E-07  2.18787299E-09
  254.031204  5.78093307E-07  2.12429541E-09
  255.822601  5.69975896E-07  2.06256412E-09
  257.626648  5.61972399E-07  2.00261896E-09
  259.44342  5.54081282E-07  1.94441618E-09
  261.27298  5.4630101E-07  1.88791072E-09
  263.115479  5.38629934E-07  1.83304594E-09
  264.970917  5.3106794E-07  1.77977955E-09
  266.839478  5.23613039E-07  1.72805914E-09
  268.721222  5.16262787E-07  1.67783742E-09
  270.616211  5.09015763E-07  1.62907243E-09
  272.524567  5.01870488E-07  1.58172497E-09
  274.446411  4.94827532E-07  1.53575552E-09
  276.381775  4.8788354E-07  1.49112245E-09
  278.33078  4.81036921E-07  1.44778933E-09
  280.293549  4.74286452E-07  1.40571665E-09
  282.270172  4.67631423E-07  1.36486711E-09
  284.260712  4.61071096E-07  1.32520617E-09
  286.265289  4.54602713E-07  1.28669708E-09
  288.284027  4.4822508E-07  1.24930755E-09
  290.316986  4.41936891E-07  1.21300514E-09
  292.364258  4.35737036E-07  1.17775889E-09
  294.425995  4.29624038E-07  1.14353726E-09
  296.502258  4.23598919E-07  1.11030951E-09
  298.59317  4.17659919E-07  1.07804676E-09
  300.698822  4.11803597E-07  1.0467115E-09
  302.819336  4.06028136E-07  1.0162623E-09
  304.954773  4.00333704E-07  9.86698612E-10
  307.105286  3.94720928E-07  9.57959823E-10
  309.270966  3.89186766E-07  9.3005792E-10
  311.451935  3.83730139E-07  9.02718456E-10
  313.648285  3.78350023E-07  8.76088091E-10
  315.860107  3.73046106E-07  8.50202742E-10
  318.087524  3.67817393E-07  8.25029933E-10
  320.330658  3.62661979E-07  8.00602751E-10
  322.589569  3.57578926E-07  7.76898046E-10
  324.864471  3.52566985E-07  7.5389528E-10
  327.155365  3.47625388E-07  7.31576855E-10
  329.462433  3.42752998E-07  7.09919568E-10
  331.785797  3.379497E-07  6.88903212E-10
  334.125549  3.33214359E-07  6.68509081E-10
  336.48175  3.28545411E-07  6.48720411E-10
  338.854584  3.23941862E-07  6.29522046E-10
  341.244171  3.19402801E-07  6.10891782E-10
  343.650604  3.14927348E-07  5.92808136E-10
  346.074005  3.10514622E-07  5.75260062E-10
  348.514465  3.06164736E-07  5.5822974E-10
  350.972198  3.01876014E-07  5.41702572E-10
  353.447205  2.97647489E-07  5.25663735E-10
  355.939697  2.93478109E-07  5.10097742E-10
  358.449738  2.89367193E-07  4.94993713E-10
  360.977509  2.8531386E-07  4.80340767E-10
  363.523102  2.81317284E-07  4.66122085E-10
  366.086639  2.77376671E-07  4.52323706E-10
  368.668243  2.73491281E-07  4.38933861E-10
  371.268066  2.69661001E-07  4.25941338E-10
  373.8862  2.65884864E-07  4.13334089E-10
  376.522797  2.62161649E-07  4.01098349E-10
  379.178009  2.58490473E-07  3.8922135E-10
  381.851959  2.54870798E-07  3.77696124E-10
  384.544739  2.51302822E-07  3.66514319E-10
  387.2565  2.4778484E-07  3.55663415E-10
  389.987427  2.44315288E-07  3.45139223E-10
  392.737579  2.40894025E-07  3.34927891E-10
  395.507141  2.37521192E-07  3.25015903E-10
  398.296234  2.34196094E-07  3.15394266E-10
  401.10498  2.30917763E-07  3.06057374E-10
  403.933533  2.2768613E-07  2.96995956E-10
  406.782043  2.24499686E-07  2.88202906E-10
  409.650635  2.21356999E-07  2.79670676E-10
  412.539459  2.18258208E-07  2.71391187E-10
  415.448669  2.15203343E-07  2.63357808E-10
  418.378357  2.12191679E-07  2.5556271E-10
  421.328705  2.09222108E-07  2.47998067E-10
  424.299927  2.06294033E-07  2.40656439E-10
  427.292023  2.03407041E-07  2.33532776E-10
  430.305267  2.00560379E-07  2.26618557E-10
  433.339752  1.97753565E-07  2.19909299E-10
  436.395599  1.94986086E-07  2.13396717E-10
  439.473022  1.92257332E-07  2.07076398E-10
  442.572174  1.89567089E-07  2.00943193E-10
  445.693146  1.8691496E-07  1.949918E-10
  448.836121  1.84299935E-07  1.89217156E-10
  452.001312  1.81721447E-07  1.83615359E-10
  455.188782  1.79179111E-07  1.7817936E-10
  458.398743  1.76672287E-07  1.72904413E-10
  461.631317  1.74200579E-07  1.67785619E-10
  464.886719  1.71763404E-07  1.62818037E-10
  468.16507  1.69360334E-07  1.57997337E-10
  471.466522  1.66991171E-07  1.53319649E-10
  474.79126  1.64655617E-07  1.48780904E-10
  478.139435  1.6235272E-07  1.44376469E-10
  481.511261  1.6008201E-07  1.40101972E-10
  484.90683  1.57843075E-07  1.35954151E-10
  488.326385  1.55635433E-07  1.31929259E-10
  491.769958  1.53458728E-07  1.28023661E-10
  495.237915  1.51312406E-07  1.24233429E-10
  498.730316  1.49196097E-07  1.20555232E-10
  502.247314  1.47109418E-07  1.16986143E-10
  505.789093  1.45051914E-07  1.13522976E-10
  509.355865  1.430232E-07  1.10162358E-10
  512.947815  1.41023435E-07  1.06901196E-10
  516.565063  1.39051679E-07  1.03736617E-10
  520.207825  1.37107065E-07  1.00665948E-10
  523.876282  1.35189481E-07  9.76863451E-11
  527.570679  1.33298883E-07  9.47949011E-11
  531.291016  1.31435129E-07  9.19891455E-11
  535.037659  1.29597396E-07  8.92663651E-11
  538.81073  1.2778537E-07  8.66239649E-11
  542.610352  1.25998682E-07  8.40597938E-11
  546.436768  1.24237005E-07  8.15717147E-11
  550.290222  1.22499927E-07  7.91573057E-11
  554.170837  1.20787433E-07  7.68143535E-11
  558.078796  1.19099106E-07  7.45408041E-11
  562.014282  1.17434276E-07  7.23344717E-11
  565.977661  1.1579229E-07  7.01933164E-11
  569.968811  1.14173318E-07  6.81156243E-11
  573.98822  1.12577418E-07  6.60994037E-11
  578.03595  1.11003843E-07  6.41428716E-11
  582.112183  1.0945228E-07  6.22445984E-11
  586.217163  1.07922425E-07  6.0402662E-11
  590.351135  1.06413914E-07  5.86152446E-11
  594.514282  1.04926507E-07  5.68806842E-11
  598.706726  1.0345989E-07  5.51975202E-11
  602.928772  1.02013757E-07  5.35639207E-11
  607.180542  1.00587862E-07  5.19786818E-11
  611.462341  9.91818823E-08  5.0436811E-11
  615.774292  9.77955708E-08  4.89399493E-11
  620.116699  9.64286144E-08  4.74856265E-11
  624.489746  9.50807717E-08  4.60729441E-11
  628.893555  9.37518791E-08  4.47005072E-11
  633.328491  9.24418515E-08  4.33638438E-11
  637.794678  9.11501417E-08  4.20672074E-11
  642.292358  8.98760888E-08  4.08092865E-11
  646.821716  8.8619835E-08  3.9589023E-11
  651.383057  8.73814159E-08  3.84053067E-11
  655.976624  8.61603908E-08  3.72569926E-11
  660.602478  8.49564543E-08  3.61430642E-11
  665.260986  8.37693364E-08  3.50624495E-11
  669.952332  8.25988025E-08  3.40141665E-11
  674.676819  8.14446182E-08  3.29972126E-11
  679.43457  8.03065703E-08  3.20107239E-11
  684.225891  7.91844244E-08  3.10537498E-11
